#Time (s)	Position (m)	Velocity (ms^-1)
0.000	-5.300E-2	0.0
0.010	-5.021E-2	0.325
0.020	-4.650E-2	0.325
0.030	-4.371E-2	0.418
0.040	-3.814E-2	0.511
0.050	-3.349E-2	0.465
0.060	-2.884E-2	0.465
0.070	-2.420E-2	0.465
0.080	-1.955E-2	0.465
0.090	-1.491E-2	0.511
0.100	-9.332E-3	0.465
0.110	-5.615E-3	0.465
0.120	-4.040E-5	0.511
0.130	4.605E-3	0.372
0.140	7.393E-3	0.418
0.150	1.297E-2	0.465
0.160	1.668E-2	0.418
0.170	2.133E-2	0.557
0.180	2.783E-2	0.511
0.190	3.155E-2	0.279
0.200	3.341E-2	0.279
0.210	3.713E-2	0.372
0.220	4.084E-2	0.325
0.230	4.363E-2	0.232
0.240	4.549E-2	0.279
0.250	4.920E-2	0.186
0.260	4.920E-2	0.000
0.270	4.920E-2	9.291E-2
0.280	5.106E-2	9.291E-2
0.290	5.106E-2	0.000
0.300	5.106E-2	0.000
0.310	5.106E-2	0.000
0.320	5.106E-2	0.000
0.330	5.106E-2	-4.646E-2
0.340	5.013E-2	-4.646E-2
0.350	5.013E-2	0.000
0.360	5.013E-2	-0.186
0.370	4.642E-2	-0.279
0.380	4.456E-2	-0.279
0.390	4.084E-2	-0.372
0.400	3.713E-2	-0.372
0.410	3.341E-2	-0.372
0.420	2.969E-2	-0.418
0.430	2.505E-2	-0.465
0.440	2.040E-2	-0.465
0.450	1.575E-2	-0.325
0.460	1.390E-2	-0.325
0.470	9.251E-3	-0.511
0.480	3.676E-3	-0.604
0.490	-2.828E-3	-0.465
0.500	-5.615E-3	-0.418
0.510	-1.119E-2	-0.511
0.520	-1.584E-2	-0.372
0.530	-1.862E-2	-0.465
0.540	-2.513E-2	-0.465
0.550	-2.791E-2	-0.372
0.560	-3.256E-2	-0.372
0.570	-3.535E-2	-0.418
0.580	-4.092E-2	-0.372
0.590	-4.278E-2	-0.186
0.600	-4.464E-2	-0.372
0.610	-5.021E-2	-0.279
0.620	-5.021E-2	-0.139
0.630	-5.300E-2	-0.186
0.640	-5.393E-2	-4.646E-2
0.650	-5.393E-2	-4.646E-2
0.660	-5.486E-2	-4.646E-2
0.670	-5.486E-2	0.000
0.680	-5.486E-2	0.000
0.690	-5.486E-2	0.186
0.700	-5.114E-2	0.232
0.710	-5.021E-2	0.139
0.720	-4.836E-2	0.325
0.730	-4.371E-2	0.279
0.740	-4.278E-2	0.372
0.750	-3.628E-2	0.372
0.760	-3.535E-2	0.325
0.770	-2.977E-2	0.465
0.780	-2.606E-2	0.418
0.790	-2.141E-2	0.418
0.800	-1.769E-2	0.697
0.810	-7.474E-3	0.604
0.820	-5.615E-3	0.279
0.830	-1.899E-3	0.511
0.840	4.605E-3	0.604
0.850	1.018E-2	0.511
0.860	1.483E-2	0.418
0.870	1.854E-2	0.325
0.880	2.133E-2	0.465
0.890	2.783E-2	0.604
0.900	3.341E-2	0.325
0.910	3.434E-2	0.372
0.920	4.084E-2	0.511
0.930	4.456E-2	0.325
0.940	4.735E-2	0.279
0.950	5.013E-2	0.232
0.960	5.199E-2	0.279
0.970	5.571E-2	0.232
0.980	5.664E-2	4.646E-2
0.990	5.664E-2	9.291E-2
1.000	5.850E-2	0.186
1.010	6.035E-2	0.186
1.020	6.221E-2	0.139
1.030	6.314E-2	-9.291E-2
1.040	6.035E-2	-0.186
1.050	5.942E-2	-0.139
1.060	5.757E-2	-9.291E-2
1.070	5.757E-2	-9.291E-2
1.080	5.571E-2	-0.186
1.090	5.385E-2	-0.232
1.100	5.106E-2	-0.232
1.110	4.920E-2	-0.325
1.120	4.456E-2	-0.511
1.130	3.898E-2	-0.372
1.140	3.713E-2	-0.279
1.150	3.341E-2	-0.232
1.160	3.248E-2	-0.465
1.170	2.412E-2	-0.511
1.180	2.226E-2	-0.279
1.190	1.854E-2	-0.511
1.200	1.204E-2	-0.650
1.210	5.534E-3	-0.511
1.220	1.818E-3	-0.465
1.230	-3.757E-3	-0.465
1.240	-7.474E-3	-0.325
1.250	-1.026E-2	-0.418
1.260	-1.584E-2	-0.511
1.270	-2.048E-2	-0.372
1.280	-2.327E-2	-0.325
1.290	-2.699E-2	-0.418
1.300	-3.163E-2	-0.372
1.310	-3.442E-2	-0.372
1.320	-3.906E-2	-0.232
1.330	-3.906E-2	-4.646E-2
1.340	-3.999E-2	-0.186
1.350	-4.278E-2	-0.139
1.360	-4.278E-2	0.000
1.370	-4.278E-2	0.000
1.380	-4.278E-2	0.000
1.390	-4.278E-2	0.000
1.400	-4.278E-2	0.000
1.410	-4.278E-2	0.139
1.420	-3.999E-2	0.232
1.430	-3.814E-2	0.186
1.440	-3.628E-2	0.186
1.450	-3.442E-2	0.279
1.460	-3.070E-2	0.325
1.470	-2.791E-2	0.372
1.480	-2.327E-2	0.511
1.490	-1.769E-2	0.465
1.500	-1.398E-2	0.372
1.510	-1.026E-2	0.418
1.520	-5.615E-3	0.372
1.530	-2.828E-3	0.372
1.540	1.818E-3	0.650
1.550	1.018E-2	0.743
1.560	1.668E-2	0.511
1.570	2.040E-2	0.325
1.580	2.319E-2	0.418
1.590	2.876E-2	0.511
1.600	3.341E-2	0.325
1.610	3.527E-2	0.418
1.620	4.177E-2	0.511
1.630	4.549E-2	0.511
1.640	5.199E-2	0.557
1.650	5.664E-2	0.372
1.660	5.942E-2	0.325
1.670	6.314E-2	0.186
1.680	6.314E-2	0.232
1.690	6.779E-2	0.232
1.700	6.779E-2	0.139
1.710	7.057E-2	0.325
1.720	7.429E-2	0.186
1.730	7.429E-2	0.000
1.740	7.429E-2	0.000
1.750	7.429E-2	4.646E-2
1.760	7.522E-2	9.291E-2
1.770	7.615E-2	-0.186
1.780	7.150E-2	-0.418
1.790	6.779E-2	-0.232
1.800	6.686E-2	-0.232
1.810	6.314E-2	-0.186
1.820	6.314E-2	-0.186
1.830	5.942E-2	-0.186
1.840	5.942E-2	-0.279
1.850	5.385E-2	-0.557
1.860	4.827E-2	-0.604
1.870	4.177E-2	-0.465
1.880	3.898E-2	-0.372
1.890	3.434E-2	-0.465
1.900	2.969E-2	-0.418
1.910	2.598E-2	-0.465
1.920	2.040E-2	-0.418
1.930	1.761E-2	-0.279
1.940	1.483E-2	-0.325
1.950	1.111E-2	-0.465
1.960	5.534E-3	-0.465
1.970	1.818E-3	-0.418
1.980	-2.828E-3	-0.372
1.990	-5.615E-3	-0.418
2.000	-1.119E-2	-0.465
2.010	-1.491E-2	-0.418
2.020	-1.955E-2	-0.372
2.030	-2.234E-2	-0.325
2.040	-2.606E-2	-0.325
2.050	-2.884E-2	-0.139
2.060	-2.884E-2	-0.139
2.070	-3.163E-2	-0.232
2.080	-3.349E-2	-0.186
2.090	-3.535E-2	-9.291E-2
2.100	-3.535E-2	0.000
2.110	-3.535E-2	0.000
2.120	-3.535E-2	9.291E-2
2.130	-3.349E-2	0.325
2.140	-2.884E-2	0.139
2.150	-3.070E-2	4.646E-2
2.160	-2.791E-2	0.325
2.170	-2.420E-2	0.279
2.180	-2.234E-2	0.372
2.190	-1.676E-2	0.465
2.200	-1.305E-2	0.465
2.210	-7.474E-3	0.465
2.220	-3.757E-3	0.279
2.230	-1.899E-3	0.465
2.240	5.534E-3	0.557
2.250	9.251E-3	0.372
2.260	1.297E-2	0.418
2.270	1.761E-2	0.372
2.280	2.040E-2	0.418
2.290	2.598E-2	0.418
2.300	2.876E-2	0.418
2.310	3.434E-2	0.418
2.320	3.713E-2	0.418
2.330	4.270E-2	0.465
2.340	4.642E-2	0.557
2.350	5.385E-2	0.465
2.360	5.571E-2	0.465
2.370	6.314E-2	0.836
2.380	7.243E-2	0.465
2.390	7.243E-2	9.291E-2
2.400	7.429E-2	0.279
2.410	7.801E-2	0.186
2.420	7.801E-2	0.139
2.430	8.079E-2	0.139
2.440	8.079E-2	0.000
2.450	8.079E-2	0.000
2.460	8.079E-2	0.000
2.470	8.079E-2	0.000
2.480	8.079E-2	-9.291E-2
2.490	7.894E-2	-0.139
2.500	7.801E-2	-0.139
2.510	7.615E-2	-0.186
2.520	7.429E-2	-0.279
2.530	7.057E-2	-0.279
2.540	6.872E-2	-0.232
2.550	6.593E-2	-0.325
2.560	6.221E-2	-0.418
2.570	5.757E-2	-0.372
2.580	5.478E-2	-0.325
2.590	5.106E-2	-0.557
2.600	4.363E-2	-0.465
2.610	4.177E-2	-0.325
2.620	3.713E-2	-0.465
2.630	3.248E-2	-0.465
2.640	2.783E-2	-0.511
2.650	2.226E-2	-0.465
2.660	1.854E-2	-0.465
2.670	1.297E-2	-0.418
2.680	1.018E-2	-0.372
2.690	5.534E-3	-0.418
2.700	1.818E-3	-0.372
2.710	-1.899E-3	-0.557
2.720	-9.332E-3	-0.557
2.730	-1.305E-2	-0.372
2.740	-1.676E-2	-0.186
2.750	-1.676E-2	-0.186
2.760	-2.048E-2	-0.372
2.770	-2.420E-2	-0.279
2.780	-2.606E-2	-0.186
2.790	-2.791E-2	-0.232
2.800	-3.070E-2	-0.186
2.810	-3.163E-2	-4.646E-2
2.820	-3.163E-2	9.291E-2
2.830	-2.977E-2	9.291E-2
2.840	-2.977E-2	0.000
2.850	-2.977E-2	0.000
2.860	-2.977E-2	0.325
2.870	-2.327E-2	0.325
2.880	-2.327E-2	0.232
2.890	-1.862E-2	0.418
2.900	-1.491E-2	0.279
2.910	-1.305E-2	0.325
2.920	-8.403E-3	0.465
2.930	-3.757E-3	0.418
2.940	-4.040E-5	0.325
2.950	2.747E-3	0.557
2.960	1.111E-2	0.604
2.970	1.483E-2	0.325
2.980	1.761E-2	0.279
2.990	2.040E-2	0.325
3.000	2.412E-2	0.511
3.010	3.062E-2	0.650
3.020	3.713E-2	0.418
3.030	3.898E-2	0.557
3.040	4.827E-2	0.604
3.050	5.106E-2	0.372
3.060	5.571E-2	0.372
3.070	5.850E-2	0.418
3.080	6.407E-2	0.511
3.090	6.872E-2	0.325
3.100	7.057E-2	0.325
3.110	7.522E-2	0.325
3.120	7.708E-2	9.291E-2
3.130	7.708E-2	4.646E-2
3.140	7.801E-2	0.279
3.150	8.265E-2	0.325
3.160	8.451E-2	0.139
3.170	8.544E-2	0.139
3.180	8.730E-2	9.291E-2
3.190	8.730E-2	0.000
3.200	8.730E-2	0.000
3.210	8.730E-2	0.000
3.220	8.730E-2	-0.186
3.230	8.358E-2	-0.325
3.240	8.079E-2	-0.279
3.250	7.801E-2	-0.325
3.260	7.429E-2	-0.186
3.270	7.429E-2	-0.186
3.280	7.057E-2	-0.465
3.290	6.500E-2	-0.465
3.300	6.128E-2	-0.325
3.310	5.850E-2	-0.372
3.320	5.385E-2	-0.465
3.330	4.920E-2	-0.465
3.340	4.456E-2	-0.465
3.350	3.991E-2	-0.511
3.360	3.434E-2	-0.511
3.370	2.969E-2	-0.418
3.380	2.598E-2	-0.372
3.390	2.226E-2	-0.372
3.400	1.854E-2	-0.325
3.410	1.575E-2	-0.372
3.420	1.111E-2	-0.418
3.430	7.393E-3	-0.325
3.440	4.605E-3	-0.418
3.450	-9.695E-4	-0.511
3.460	-5.615E-3	-0.418
3.470	-9.332E-3	-0.279
3.480	-1.119E-2	-0.186
3.490	-1.305E-2	-9.291E-2
3.500	-1.305E-2	-0.186
3.510	-1.676E-2	-0.186
3.520	-1.676E-2	0.000
3.530	-1.676E-2	0.000
3.540	-1.676E-2	0.000
3.550	-1.676E-2	0.000
3.560	-1.676E-2	0.000
3.570	-1.676E-2	0.000
3.580	-1.676E-2	0.186
3.590	-1.305E-2	0.279
3.600	-1.119E-2	0.186
3.610	-9.332E-3	0.186
3.620	-7.474E-3	0.279
3.630	-3.757E-3	0.465
3.640	1.818E-3	0.372
3.650	3.676E-3	0.139
3.660	4.605E-3	0.232
3.670	8.322E-3	0.372
3.680	1.204E-2	0.325
3.690	1.483E-2	0.325
3.700	1.854E-2	0.557
3.710	2.598E-2	0.790
3.720	3.434E-2	0.511
3.730	3.620E-2	0.232
3.740	3.898E-2	0.465
3.750	4.549E-2	0.650
3.760	5.199E-2	0.325
3.770	5.199E-2	0.465
3.780	6.128E-2	0.465
3.790	6.128E-2	0.279
3.800	6.686E-2	0.511
3.810	7.150E-2	0.418
3.820	7.522E-2	0.325
3.830	7.801E-2	0.325
3.840	8.172E-2	0.279
3.850	8.358E-2	0.232
3.860	8.637E-2	0.186
3.870	8.730E-2	4.646E-2
3.880	8.730E-2	0.000
3.890	8.730E-2	0.232
3.900	9.194E-2	0.232
3.910	9.194E-2	0.000
3.920	9.194E-2	0.000
3.930	9.194E-2	0.000
3.940	9.194E-2	-9.291E-2
3.950	9.009E-2	-9.291E-2
3.960	9.009E-2	-0.279
3.970	8.451E-2	-0.418
3.980	8.172E-2	-0.279
3.990	7.894E-2	-0.279
4.000	7.615E-2	-0.279
4.010	7.336E-2	-0.279
4.020	7.057E-2	-0.418
4.030	6.500E-2	-0.372
4.040	6.314E-2	-0.232
4.050	6.035E-2	-0.232
4.060	5.850E-2	-0.325
4.070	5.385E-2	-0.372
4.080	5.106E-2	-0.557
4.090	4.270E-2	-0.650
4.100	3.805E-2	-0.557
4.110	3.155E-2	-0.604
4.120	2.598E-2	-0.465
4.130	2.226E-2	-0.372
4.140	1.854E-2	-0.372
4.150	1.483E-2	-0.372
4.160	1.111E-2	-0.372
4.170	7.393E-3	-0.418
4.180	2.747E-3	-0.465
4.190	-1.899E-3	-0.418
4.200	-5.615E-3	-0.372
4.210	-9.332E-3	-0.372
4.220	-1.305E-2	-0.279
4.230	-1.491E-2	-0.232
4.240	-1.769E-2	0.000
4.250	-1.491E-2	0.139
4.260	-1.491E-2	-9.291E-2
4.270	-1.676E-2	-9.291E-2
4.280	-1.676E-2	0.000
4.290	-1.676E-2	0.000
4.300	-1.676E-2	0.000
4.310	-1.676E-2	0.279
4.320	-1.119E-2	0.418
4.330	-8.403E-3	0.372
4.340	-3.757E-3	0.279
4.350	-2.828E-3	0.186
4.360	-4.040E-5	0.279
4.370	2.747E-3	0.325
4.380	6.464E-3	0.325
4.390	9.251E-3	0.325
4.400	1.297E-2	0.465
4.410	1.854E-2	0.465
4.420	2.226E-2	0.279
4.430	2.412E-2	0.372
4.440	2.969E-2	0.557
4.450	3.527E-2	0.511
4.460	3.991E-2	0.465
4.470	4.456E-2	0.604
4.480	5.199E-2	0.650
4.490	5.757E-2	0.557
4.500	6.314E-2	0.232
4.510	6.221E-2	0.232
4.520	6.779E-2	0.372
4.530	6.965E-2	0.418
4.540	7.615E-2	0.465
4.550	7.894E-2	0.279
4.560	8.172E-2	0.279
4.570	8.451E-2	0.279
4.580	8.730E-2	0.325
4.590	9.102E-2	0.186
4.600	9.102E-2	4.646E-2
4.610	9.194E-2	4.646E-2
4.620	9.194E-2	0.139
4.630	9.473E-2	0.139
4.640	9.473E-2	0.000
4.650	9.473E-2	-0.139
4.660	9.194E-2	-0.139
4.670	9.194E-2	-0.139
4.680	8.916E-2	-0.232
4.690	8.730E-2	-0.186
4.700	8.544E-2	-0.232
4.710	8.265E-2	-0.186
4.720	8.172E-2	-0.186
4.730	7.894E-2	-0.325
4.740	7.522E-2	-0.325
4.750	7.243E-2	-0.325
4.760	6.872E-2	-0.557
4.770	6.128E-2	-0.650
4.780	5.571E-2	-0.465
4.790	5.199E-2	-0.418
4.800	4.735E-2	-0.465
4.810	4.270E-2	-0.511
4.820	3.713E-2	-0.465
4.830	3.341E-2	-0.372
4.840	2.969E-2	-0.465
4.850	2.412E-2	-0.465
4.860	2.040E-2	-0.418
4.870	1.575E-2	-0.418
4.880	1.204E-2	-0.465
4.890	6.464E-3	-0.418
4.900	3.676E-3	-0.232
4.910	1.818E-3	-0.279
4.920	-1.899E-3	-0.279
4.930	-3.757E-3	-0.650
4.940	-1.491E-2	-0.279
4.950	-9.332E-3	0.186
4.960	-1.119E-2	-0.232
4.970	-1.398E-2	-0.186
4.980	-1.491E-2	-0.139
4.990	-1.676E-2	-9.291E-2
5.000	-1.676E-2	0.000
5.010	-1.676E-2	0.000
5.020	-1.676E-2	9.291E-2
5.030	-1.491E-2	0.279
5.040	-1.119E-2	0.372
5.050	-7.474E-3	0.232
5.060	-6.544E-3	4.646E-2
5.070	-6.544E-3	0.186
5.080	-2.828E-3	0.418
5.090	1.818E-3	0.325
5.100	3.676E-3	0.279
5.110	7.393E-3	0.325
5.120	1.018E-2	0.279
5.130	1.297E-2	0.325
5.140	1.668E-2	0.465
5.150	2.226E-2	0.465
5.160	2.598E-2	0.650
5.170	3.527E-2	0.557
5.180	3.713E-2	0.325
5.190	4.177E-2	0.465
5.200	4.642E-2	0.557
5.210	5.292E-2	0.557
5.220	5.757E-2	0.372
5.230	6.035E-2	0.279
5.240	6.314E-2	0.418
5.250	6.872E-2	0.465
5.260	7.243E-2	0.325
5.270	7.522E-2	0.372
5.280	7.987E-2	0.279
5.290	8.079E-2	0.418
5.300	8.823E-2	0.465
5.310	9.009E-2	0.139
5.320	9.102E-2	-4.646E-2
5.330	8.916E-2	-9.291E-2
5.340	8.916E-2	0.000
5.350	8.916E-2	0.000
5.360	8.916E-2	0.000
5.370	8.916E-2	0.000
5.380	8.916E-2	-9.291E-2
5.390	8.730E-2	-9.291E-2
5.400	8.730E-2	-0.186
5.410	8.358E-2	-0.418
5.420	7.894E-2	-0.279
5.430	7.801E-2	-0.232
5.440	7.429E-2	-0.279
5.450	7.243E-2	-0.232
5.460	6.965E-2	-0.372
5.470	6.500E-2	-0.372
5.480	6.221E-2	-0.372
5.490	5.757E-2	-0.604
5.500	5.013E-2	-0.511
5.510	4.735E-2	-0.325
5.520	4.363E-2	-0.372
5.530	3.991E-2	-0.372
5.540	3.620E-2	-0.604
5.550	2.783E-2	-0.650
5.560	2.319E-2	-0.557
5.570	1.668E-2	-0.604
5.580	1.111E-2	-0.465
5.590	7.393E-3	-0.372
5.600	3.676E-3	-0.372
5.610	-4.040E-5	-0.325
5.620	-2.828E-3	-0.325
5.630	-6.544E-3	-0.372
5.640	-1.026E-2	-0.186
5.650	-1.026E-2	-0.139
5.660	-1.305E-2	-0.372
5.670	-1.769E-2	-0.418
5.680	-2.141E-2	-0.186
5.690	-2.141E-2	-0.139
5.700	-2.420E-2	-0.139
5.710	-2.420E-2	0.000
5.720	-2.420E-2	0.000
5.730	-2.420E-2	0.000
5.740	-2.420E-2	9.291E-2
5.750	-2.234E-2	0.186
5.760	-2.048E-2	0.232
5.770	-1.769E-2	0.186
5.780	-1.676E-2	0.139
5.790	-1.491E-2	0.279
5.800	-1.119E-2	0.325
5.810	-8.403E-3	0.325
5.820	-4.686E-3	0.325
5.830	-1.899E-3	0.325
5.840	1.818E-3	0.325
5.850	4.605E-3	0.604
5.860	1.390E-2	0.650
5.870	1.761E-2	0.325
5.880	2.040E-2	0.372
5.890	2.505E-2	0.418
5.900	2.876E-2	0.372
5.910	3.248E-2	0.325
5.920	3.527E-2	0.650
5.930	4.549E-2	0.743
5.940	5.013E-2	0.418
5.950	5.385E-2	0.232
5.960	5.478E-2	0.232
5.970	5.850E-2	0.372
5.980	6.221E-2	0.418
5.990	6.686E-2	0.511
6.000	7.243E-2	0.372
6.010	7.429E-2	9.291E-2
6.020	7.429E-2	4.646E-2
6.030	7.522E-2	4.646E-2
6.040	7.522E-2	0.186
6.050	7.894E-2	0.186
6.060	7.894E-2	4.646E-2
6.070	7.987E-2	4.646E-2
6.080	7.987E-2	0.000
6.090	7.987E-2	0.000
6.100	7.987E-2	-9.291E-2
6.110	7.801E-2	-0.186
6.120	7.615E-2	-0.186
6.130	7.429E-2	-0.186
6.140	7.243E-2	-0.232
6.150	6.965E-2	-0.372
6.160	6.500E-2	-0.418
6.170	6.128E-2	-0.325
6.180	5.850E-2	-0.279
6.190	5.571E-2	-0.372
6.200	5.106E-2	-0.511
6.210	4.549E-2	-0.511
6.220	4.084E-2	-0.325
6.230	3.898E-2	-0.372
6.240	3.341E-2	-0.511
6.250	2.876E-2	-0.511
6.260	2.319E-2	-0.557
6.270	1.761E-2	-0.418
6.280	1.483E-2	-0.511
6.290	7.393E-3	-0.557
6.300	3.676E-3	-0.186
6.310	3.676E-3	-0.186
6.320	-4.040E-5	-0.465
6.330	-5.615E-3	-0.465
6.340	-9.332E-3	-0.465
6.350	-1.491E-2	-0.325
6.360	-1.584E-2	-0.186
6.370	-1.862E-2	-0.418
6.380	-2.420E-2	-0.588
6.390	-2.542E-2	-0.388
6.400	-2.606E-2	-0.186
6.410	-2.977E-2	-0.279
6.420	-3.163E-2	-9.291E-2
6.430	-3.163E-2	-4.646E-2
6.440	-3.256E-2	-4.646E-2
6.450	-3.256E-2	0.000
6.460	-3.256E-2	0.000
6.470	-3.256E-2	0.000
6.480	-3.256E-2	0.232
6.490	-2.791E-2	0.511
6.500	-2.234E-2	0.372
6.510	-2.048E-2	0.232
6.520	-1.769E-2	0.279
6.530	-1.491E-2	0.139
6.540	-1.491E-2	0.279
6.550	-9.332E-3	0.418
6.560	-6.544E-3	0.372
6.570	-1.899E-3	0.418
6.580	1.818E-3	0.372
6.590	5.534E-3	0.465
6.600	1.111E-2	0.465
6.610	1.483E-2	0.418
6.620	1.947E-2	0.372
6.630	2.226E-2	0.372
6.640	2.690E-2	0.650
6.650	3.527E-2	0.743
6.660	4.177E-2	0.557
6.670	4.642E-2	0.279
6.680	4.735E-2	0.232
6.690	5.106E-2	0.418
6.700	5.571E-2	0.325
6.710	5.757E-2	0.279
6.720	6.128E-2	0.465
6.730	6.686E-2	0.279
6.740	6.686E-2	9.291E-2
6.750	6.872E-2	0.465
6.760	7.615E-2	0.372
6.770	7.615E-2	0.000
6.780	7.615E-2	0.000
6.790	7.615E-2	0.000
6.800	7.615E-2	0.000
6.810	7.615E-2	0.000
6.820	7.615E-2	-0.139
6.830	7.336E-2	-0.279
6.840	7.057E-2	-0.139
6.850	7.057E-2	-0.186
6.860	6.686E-2	-0.372
6.870	6.314E-2	-0.232
6.880	6.221E-2	-0.186
6.890	5.942E-2	-0.325
6.900	5.571E-2	-0.372
6.910	5.199E-2	-0.372
6.920	4.827E-2	-0.418
6.930	4.363E-2	-0.465
6.940	3.898E-2	-0.372
6.950	3.620E-2	-0.372
6.960	3.155E-2	-0.511
6.970	2.598E-2	-0.511
6.980	2.133E-2	-0.418
6.990	1.761E-2	-0.418
7.000	1.297E-2	-0.511
7.010	7.393E-3	-0.465
7.020	3.676E-3	-0.372
7.030	-4.040E-5	-0.511
7.040	-6.544E-3	-0.418
7.050	-8.403E-3	-0.279
7.060	-1.212E-2	-0.557
7.070	-1.955E-2	-0.557
7.080	-2.327E-2	-0.186
7.090	-2.327E-2	0.000
7.100	-2.327E-2	-0.186
7.110	-2.699E-2	-0.465
7.120	-3.256E-2	-0.325
7.130	-3.349E-2	-4.646E-2
7.140	-3.349E-2	0.000
7.150	-3.349E-2	0.000
7.160	-3.349E-2	0.000
7.170	-3.349E-2	0.000
7.180	-3.349E-2	0.000
7.190	-3.349E-2	9.291E-2
7.200	-3.163E-2	0.279
7.210	-2.791E-2	0.279
7.220	-2.606E-2	0.186
7.230	-2.420E-2	0.279
7.240	-2.048E-2	0.372
7.250	-1.676E-2	0.279
7.260	-1.491E-2	0.279
7.270	-1.119E-2	0.372
7.280	-7.474E-3	0.372
7.290	-3.757E-3	0.465
7.300	1.818E-3	0.557
7.310	7.393E-3	0.372
7.320	9.251E-3	0.418
7.330	1.575E-2	0.557
7.340	2.040E-2	0.418
7.350	2.412E-2	0.604
7.360	3.248E-2	0.557
7.370	3.527E-2	0.372
7.380	3.991E-2	0.465
7.390	4.456E-2	0.511
7.400	5.013E-2	0.372
7.410	5.199E-2	0.325
7.420	5.664E-2	0.557
7.430	6.314E-2	0.418
7.440	6.500E-2	0.186
7.450	6.686E-2	0.279
7.460	7.057E-2	0.186
7.470	7.057E-2	0.186
7.480	7.429E-2	0.186
7.490	7.429E-2	0.000
7.500	7.429E-2	9.291E-2
7.510	7.615E-2	9.291E-2
7.520	7.615E-2	0.000
7.530	7.615E-2	0.000
7.540	7.615E-2	-9.291E-2
7.550	7.429E-2	-0.325
7.560	6.965E-2	-0.279
7.570	6.872E-2	-0.186
7.580	6.593E-2	-0.279
7.590	6.314E-2	-0.186
7.600	6.221E-2	-0.139
7.610	6.035E-2	-0.232
7.620	5.757E-2	-0.325
7.630	5.385E-2	-0.372
7.640	5.013E-2	-0.325
7.650	4.735E-2	-0.279
7.660	4.456E-2	-0.418
7.670	3.898E-2	-0.465
7.680	3.527E-2	-0.465
7.690	2.969E-2	-0.557
7.700	2.412E-2	-0.511
7.710	1.947E-2	-0.557
7.720	1.297E-2	-0.372
7.730	1.204E-2	-0.418
7.740	4.605E-3	-0.511
7.750	1.818E-3	-0.279
7.760	-9.695E-4	-0.232
7.770	-2.828E-3	-0.325
7.780	-7.474E-3	-0.465
7.790	-1.212E-2	-0.279
7.800	-1.305E-2	-0.232
7.810	-1.676E-2	-0.325
7.820	-1.955E-2	-0.325
7.830	-2.327E-2	-0.604
7.840	-3.163E-2	-0.465
7.850	-3.256E-2	-9.291E-2
7.860	-3.349E-2	-4.646E-2
7.870	-3.349E-2	0.000
7.880	-3.349E-2	0.000
7.890	-3.349E-2	0.000
7.900	-3.349E-2	0.000
7.910	-3.349E-2	0.000
7.920	-3.349E-2	0.139
7.930	-3.070E-2	0.186
7.940	-2.977E-2	0.372
7.950	-2.327E-2	0.557
7.960	-1.862E-2	0.139
7.970	-2.048E-2	0.186
7.980	-1.491E-2	0.511
7.990	-1.026E-2	0.418
8.000	-6.544E-3	0.325
8.010	-3.757E-3	0.511
8.020	3.676E-3	0.557
8.030	7.393E-3	0.372
8.040	1.111E-2	0.186
8.050	1.111E-2	0.279
8.060	1.668E-2	0.557
8.070	2.226E-2	0.465
8.080	2.598E-2	0.325
8.090	2.876E-2	0.418
8.100	3.434E-2	0.511
8.110	3.898E-2	0.465
8.120	4.363E-2	0.511
8.130	4.920E-2	0.511
8.140	5.385E-2	0.372
8.150	5.664E-2	0.279
8.160	5.942E-2	0.325
8.170	6.314E-2	0.325
8.180	6.593E-2	0.279
8.190	6.872E-2	0.325
8.200	7.243E-2	0.372
8.210	7.615E-2	0.186
8.220	7.615E-2	0.000
8.230	7.615E-2	0.000
8.240	7.615E-2	0.000
8.250	7.615E-2	0.000
8.260	7.615E-2	0.000
8.270	7.615E-2	-0.232
8.280	7.150E-2	-0.279
8.290	7.057E-2	-4.646E-2
8.300	7.057E-2	-0.139
8.310	6.779E-2	-0.372
8.320	6.314E-2	-0.232
8.330	6.314E-2	-0.139
8.340	6.035E-2	-0.279
8.350	5.757E-2	-0.279
8.360	5.478E-2	-0.418
8.370	4.920E-2	-0.604
8.380	4.270E-2	-0.465
8.390	3.991E-2	-0.372
8.400	3.527E-2	-0.372
8.410	3.248E-2	-0.418
8.420	2.690E-2	-0.511
8.430	2.226E-2	-0.511
8.440	1.668E-2	-0.604
8.450	1.018E-2	-0.743
8.460	1.818E-3	-0.697
8.470	-3.757E-3	-0.372
8.480	-5.615E-3	-0.279
8.490	-9.332E-3	-0.372
8.500	-1.305E-2	-0.465
8.510	-1.862E-2	-0.697
8.520	-2.699E-2	-0.650
8.530	-3.163E-2	-0.465
8.540	-3.628E-2	-0.465
8.550	-4.092E-2	-0.418
8.560	-4.464E-2	-0.279
8.570	-4.650E-2	-9.291E-2
8.580	-4.650E-2	4.646E-2
8.590	-4.557E-2	9.291E-2
8.600	-4.464E-2	0.301
8.610	-3.954E-2	0.210
8.620	-4.045E-2	-0.364
8.630	-4.681E-2	-0.409
8.640	-4.863E-2	-9.089E-2
8.650	-4.863E-2	0.000
8.660	-4.863E-2	0.136
8.670	-4.590E-2	0.364
8.680	-4.136E-2	0.318
8.690	-3.954E-2	0.273
8.700	-3.590E-2	0.318
8.710	-3.318E-2	0.364
8.720	-2.863E-2	0.318
8.730	-2.681E-2	0.591
